
# Curve 0 of 1, 400 points
# Curve title: "( (0.1*2.5)*sin((t*1))*cos((t*1)*(15*3.14/180)/2/3.14+(70*3.14/180)) +(.5*2.5)*cos((t*1))*sin((t*1)*(15*3.14/180)/2/3.14+(70*3.14/180)) )/1, ( (0.1*2.5)*sin((t*1))*cos((t*1)*(15*3.14/180)/2/3.14+(70*3.14/180)) +(.5*2.5)*cos((t*1))*sin((t*1)*(15*3.14/180)/2/3.14+(70*3.14/180)) )/1,( (.5*2.5)*cos((t*1))*cos((t*1)*(15*3.14/180)/2/3.14+(70*3.14/180)) -(0.1*2.5)*sin((t*1))*sin((t*1)*(15*3.14/180)/2/3.14+(70*3.14/180)) )/1"
# x y type
-0.07057 0.45812  i
-0.03939 0.51902  i
-0.00780 0.57805  i
0.02409 0.63501  i
0.05618 0.68971  i
0.08833 0.74197  i
0.12044 0.79162  i
0.15238 0.83849  i
0.18403 0.88242  i
0.21528 0.92329  i
0.24600 0.96094  i
0.27607 0.99526  i
0.30539 1.02613  i
0.33384 1.05347  i
0.36130 1.07718  i
0.38767 1.09719  i
0.41285 1.11344  i
0.43672 1.12588  i
0.45919 1.13448  i
0.48018 1.13921  i
0.49958 1.14007  i
0.51733 1.13706  i
0.53334 1.13020  i
0.54753 1.11952  i
0.55985 1.10507  i
0.57024 1.08690  i
0.57864 1.06508  i
0.58501 1.03969  i
0.58931 1.01083  i
0.59151 0.97861  i
0.59158 0.94313  i
0.58952 0.90453  i
0.58531 0.86295  i
0.57895 0.81854  i
0.57045 0.77145  i
0.55984 0.72184  i
0.54712 0.66990  i
0.53233 0.61580  i
0.51551 0.55974  i
0.49671 0.50191  i
0.47599 0.44251  i
0.45339 0.38175  i
0.42900 0.31983  i
0.40289 0.25697  i
0.37514 0.19340  i
0.34583 0.12932  i
0.31508 0.06495  i
0.28296 0.00052  i
0.24961 -0.06376  i
0.21511 -0.12766  i
0.17960 -0.19097  i
0.14319 -0.25347  i
0.10601 -0.31496  i
0.06818 -0.37522  i
0.02985 -0.43406  i
-0.00887 -0.49127  i
-0.04783 -0.54666  i
-0.08689 -0.60006  i
-0.12591 -0.65128  i
-0.16475 -0.70016  i
-0.20328 -0.74652  i
-0.24135 -0.79023  i
-0.27882 -0.83114  i
-0.31556 -0.86911  i
-0.35143 -0.90403  i
-0.38629 -0.93579  i
-0.42002 -0.96427  i
-0.45248 -0.98940  i
-0.48356 -1.01110  i
-0.51313 -1.02930  i
-0.54107 -1.04395  i
-0.56729 -1.05501  i
-0.59167 -1.06245  i
-0.61411 -1.06625  i
-0.63453 -1.06642  i
-0.65283 -1.06296  i
-0.66895 -1.05589  i
-0.68281 -1.04526  i
-0.69434 -1.03109  i
-0.70350 -1.01346  i
-0.71023 -0.99243  i
-0.71449 -0.96808  i
-0.71627 -0.94051  i
-0.71553 -0.90982  i
-0.71226 -0.87612  i
-0.70646 -0.83954  i
-0.69814 -0.80021  i
-0.68731 -0.75828  i
-0.67400 -0.71389  i
-0.65823 -0.66720  i
-0.64005 -0.61838  i
-0.61950 -0.56761  i
-0.59666 -0.51505  i
-0.57158 -0.46091  i
-0.54435 -0.40536  i
-0.51504 -0.34861  i
-0.48374 -0.29084  i
-0.45057 -0.23227  i
-0.41562 -0.17308  i
-0.37900 -0.11350  i
-0.34084 -0.05372  i
-0.30127 0.00605  i
-0.26041 0.06561  i
-0.21840 0.12475  i
-0.17539 0.18327  i
-0.13151 0.24098  i
-0.08692 0.29768  i
-0.04178 0.35317  i
0.00377 0.40727  i
0.04955 0.45981  i
0.09543 0.51060  i
0.14122 0.55948  i
0.18678 0.60629  i
0.23194 0.65086  i
0.27654 0.69307  i
0.32041 0.73276  i
0.36341 0.76982  i
0.40538 0.80412  i
0.44616 0.83555  i
0.48560 0.86402  i
0.52357 0.88945  i
0.55991 0.91174  i
0.59450 0.93085  i
0.62720 0.94670  i
0.65789 0.95927  i
0.68645 0.96851  i
0.71277 0.97441  i
0.73675 0.97696  i
0.75829 0.97616  i
0.77731 0.97203  i
0.79372 0.96459  i
0.80745 0.95388  i
0.81845 0.93995  i
0.82666 0.92286  i
0.83205 0.90268  i
0.83457 0.87948  i
0.83420 0.85336  i
0.83094 0.82443  i
0.82478 0.79278  i
0.81572 0.75854  i
0.80379 0.72184  i
0.78901 0.68281  i
0.77143 0.64159  i
0.75109 0.59834  i
0.72804 0.55320  i
0.70236 0.50635  i
0.67412 0.45796  i
0.64341 0.40818  i
0.61033 0.35721  i
0.57497 0.30521  i
0.53746 0.25238  i
0.49791 0.19890  i
0.45646 0.14495  i
0.41323 0.09072  i
0.36837 0.03641  i
0.32202 -0.01781  i
0.27435 -0.07174  i
0.22552 -0.12520  i
0.17568 -0.17801  i
0.12500 -0.22999  i
0.07367 -0.28096  i
0.02185 -0.33075  i
-0.03028 -0.37920  i
-0.08254 -0.42613  i
-0.13475 -0.47141  i
-0.18672 -0.51487  i
-0.23828 -0.55638  i
-0.28924 -0.59579  i
-0.33943 -0.63299  i
-0.38866 -0.66785  i
-0.43677 -0.70026  i
-0.48358 -0.73012  i
-0.52893 -0.75735  i
-0.57264 -0.78184  i
-0.61457 -0.80354  i
-0.65456 -0.82238  i
-0.69246 -0.83831  i
-0.72813 -0.85128  i
-0.76145 -0.86126  i
-0.79228 -0.86824  i
-0.82052 -0.87219  i
-0.84604 -0.87312  i
-0.86876 -0.87104  i
-0.88858 -0.86598  i
-0.90542 -0.85795  i
-0.91922 -0.84701  i
-0.92990 -0.83320  i
-0.93744 -0.81658  i
-0.94178 -0.79723  i
-0.94290 -0.77522  i
-0.94078 -0.75065  i
-0.93541 -0.72360  i
-0.92682 -0.69419  i
-0.91500 -0.66253  i
-0.89999 -0.62874  i
-0.88183 -0.59294  i
-0.86057 -0.55527  i
-0.83628 -0.51587  i
-0.80902 -0.47488  i
-0.77887 -0.43245  i
-0.74594 -0.38875  i
-0.71032 -0.34392  i
-0.67213 -0.29813  i
-0.63149 -0.25153  i
-0.58853 -0.20431  i
-0.54339 -0.15662  i
-0.49622 -0.10863  i
-0.44718 -0.06051  i
-0.39642 -0.01243  i
-0.34412 0.03544  i
-0.29045 0.08294  i
-0.23558 0.12990  i
-0.17972 0.17617  i
-0.12303 0.22159  i
-0.06573 0.26599  i
-0.00799 0.30924  i
0.04997 0.35118  i
0.10797 0.39168  i
0.16580 0.43061  i
0.22327 0.46783  i
0.28017 0.50323  i
0.33630 0.53668  i
0.39148 0.56809  i
0.44550 0.59735  i
0.49818 0.62438  i
0.54934 0.64909  i
0.59879 0.67141  i
0.64635 0.69126  i
0.69186 0.70860  i
0.73515 0.72338  i
0.77607 0.73556  i
0.81448 0.74511  i
0.85022 0.75201  i
0.88316 0.75625  i
0.91320 0.75784  i
0.94021 0.75678  i
0.96409 0.75308  i
0.98475 0.74678  i
1.00211 0.73792  i
1.01610 0.72653  i
1.02666 0.71268  i
1.03374 0.69642  i
1.03732 0.67783  i
1.03736 0.65698  i
1.03385 0.63396  i
1.02681 0.60886  i
1.01623 0.58179  i
1.00215 0.55285  i
0.98461 0.52216  i
0.96365 0.48982  i
0.93934 0.45597  i
0.91174 0.42073  i
0.88095 0.38424  i
0.84707 0.34663  i
0.81019 0.30804  i
0.77044 0.26862  i
0.72795 0.22850  i
0.68284 0.18783  i
0.63528 0.14676  i
0.58542 0.10544  i
0.53341 0.06402  i
0.47944 0.02264  i
0.42368 -0.01856  i
0.36632 -0.05942  i
0.30755 -0.09980  i
0.24756 -0.13957  i
0.18657 -0.17859  i
0.12477 -0.21671  i
0.06238 -0.25383  i
-0.00039 -0.28980  i
-0.06333 -0.32450  i
-0.12623 -0.35783  i
-0.18886 -0.38967  i
-0.25102 -0.41992  i
-0.31248 -0.44848  i
-0.37305 -0.47527  i
-0.43250 -0.50018  i
-0.49063 -0.52316  i
-0.54724 -0.54413  i
-0.60213 -0.56302  i
-0.65511 -0.57980  i
-0.70600 -0.59439  i
-0.75461 -0.60678  i
-0.80077 -0.61693  i
-0.84432 -0.62482  i
-0.88510 -0.63044  i
-0.92298 -0.63378  i
-0.95780 -0.63484  i
-0.98945 -0.63364  i
-1.01780 -0.63019  i
-1.04276 -0.62453  i
-1.06423 -0.61668  i
-1.08213 -0.60670  i
-1.09639 -0.59462  i
-1.10695 -0.58052  i
-1.11378 -0.56445  i
-1.11682 -0.54648  i
-1.11608 -0.52670  i
-1.11153 -0.50519  i
-1.10319 -0.48203  i
-1.09108 -0.45732  i
-1.07524 -0.43116  i
-1.05569 -0.40366  i
-1.03252 -0.37492  i
-1.00578 -0.34506  i
-0.97556 -0.31420  i
-0.94195 -0.28244  i
-0.90507 -0.24992  i
-0.86503 -0.21675  i
-0.82196 -0.18307  i
-0.77601 -0.14899  i
-0.72732 -0.11465  i
-0.67605 -0.08016  i
-0.62237 -0.04566  i
-0.56647 -0.01128  i
-0.50853 0.02287  i
-0.44873 0.05667  i
-0.38729 0.08998  i
-0.32440 0.12270  i
-0.26028 0.15470  i
-0.19515 0.18588  i
-0.12923 0.21613  i
-0.06273 0.24535  i
0.00411 0.27343  i
0.07107 0.30028  i
0.13793 0.32582  i
0.20444 0.34996  i
0.27039 0.37262  i
0.33554 0.39373  i
0.39968 0.41322  i
0.46259 0.43104  i
0.52405 0.44713  i
0.58384 0.46145  i
0.64175 0.47395  i
0.69760 0.48461  i
0.75118 0.49340  i
0.80231 0.50031  i
0.85081 0.50532  i
0.89651 0.50842  i
0.93924 0.50963  i
0.97887 0.50895  i
1.01524 0.50640  i
1.04822 0.50201  i
1.07771 0.49580  i
1.10359 0.48781  i
1.12577 0.47809  i
1.14417 0.46669  i
1.15872 0.45367  i
1.16936 0.43908  i
1.17604 0.42299  i
1.17875 0.40547  i
1.17747 0.38661  i
1.17218 0.36649  i
1.16292 0.34518  i
1.14969 0.32279  i
1.13254 0.29939  i
1.11152 0.27510  i
1.08670 0.25000  i
1.05815 0.22421  i
1.02597 0.19781  i
0.99027 0.17092  i
0.95114 0.14365  i
0.90874 0.11610  i
0.86319 0.08837  i
0.81464 0.06057  i
0.76326 0.03282  i
0.70922 0.00521  i
0.65269 -0.02216  i
0.59387 -0.04917  i
0.53295 -0.07573  i
0.47014 -0.10175  i
0.40565 -0.12712  i
0.33969 -0.15175  i
0.27249 -0.17557  i
0.20428 -0.19847  i
0.13528 -0.22039  i
0.06573 -0.24125  i
-0.00414 -0.26097  i
-0.07409 -0.27949  i
-0.14387 -0.29675  i
-0.21326 -0.31269  i
-0.28201 -0.32726  i
-0.34990 -0.34042  i
-0.41668 -0.35212  i
-0.48214 -0.36234  i
-0.54605 -0.37106  i
-0.60818 -0.37823  i
-0.66833 -0.38386  i
-0.72628 -0.38794  i
-0.78184 -0.39045  i
-0.83482 -0.39141  i
-0.88504 -0.39083  i
-0.93231 -0.38871  i
-0.97648 -0.38509  i
-1.01739 -0.37999  i
-1.05490 -0.37343  i
-1.08887 -0.36547  i
-1.11920 -0.35614  i
-1.14577 -0.34550  i
-1.16848 -0.33359  i

